freq/(cm-1)	Tra(GAS)[acetone]	Tra(SOLI)[acetone]	Rot(GAS)[acetone]	Rot(SOLI)[acetone]	Vib[acetone]	Ang(GAS)[acetone]	Ang(SOLI)[acetone]
         0.0000	        14.7532	         0.0000	         1.3171	         0.0000	         1.3063	         9.9484	         0.0000
         0.8338	        14.7280	         0.0000	         1.3168	         0.6545	         1.3349	         9.9371	         0.0000
         1.6677	        14.6528	         1.7314	         1.3162	         2.0925	         1.3663	         9.9033	         0.0000
         2.5015	        14.5293	         1.6254	         1.3151	         3.4595	         1.4526	         9.8475	         0.1129
         3.3353	        14.3598	         0.8852	         1.3136	         4.3664	         1.4824	         9.7705	         0.0000
         4.1691	        14.1476	         2.2660	         1.3116	         4.8498	         1.5678	         9.6732	         0.0000
         5.0030	        13.8967	         3.1851	         1.3092	         5.5547	         1.6901	         9.5569	         1.1828
         5.8368	        13.6113	         3.1977	         1.3064	         5.9836	         1.7470	         9.4230	         0.6004
         6.6706	        13.2963	         4.3146	         1.3032	         6.4818	         1.8221	         9.2731	         1.2871
         7.5044	        12.9565	         5.0816	         1.2996	         6.7585	         1.9084	         9.1088	         1.3658
         8.3383	        12.5966	         5.3021	         1.2956	         6.9638	         1.9849	         8.9320	         1.7308
         9.1721	        12.2215	         5.8431	         1.2911	         7.5588	         2.0436	         8.7444	         2.1786
        10.0059	        11.8354	         6.7853	         1.2863	         7.5688	         2.1476	         8.5478	         2.6595
        10.8397	        11.4425	         6.7417	         1.2811	         8.0421	         2.1994	         8.3438	         2.3649
        11.6736	        11.0465	         8.2632	         1.2756	         8.3863	         2.2794	         8.1342	         3.3262
        12.5074	        10.6505	         7.7136	         1.2697	         8.2368	         2.3515	         7.9205	         3.1709
        13.3412	        10.2575	         8.5769	         1.2634	         8.4170	         2.3593	         7.7041	         3.9162
        14.1751	         9.8698	         9.7788	         1.2568	         8.9044	         2.4042	         7.4864	         3.4834
        15.0089	         9.4894	        10.4031	         1.2499	         8.6849	         2.4800	         7.2686	         4.0694
        15.8427	         9.1179	        10.8792	         1.2426	         9.4908	         2.5618	         7.0517	         4.4529
        16.6765	         8.7566	        10.4851	         1.2351	         9.1963	         2.5665	         6.8366	         4.7452
        17.5104	         8.4064	        10.8007	         1.2273	         9.4322	         2.5994	         6.6243	         5.5901
        18.3442	         8.0680	        11.0242	         1.2192	        10.0148	         2.6337	         6.4152	         5.3321
        19.1780	         7.7418	        11.6642	         1.2108	         9.9991	         2.7016	         6.2102	         5.8219
        20.0118	         7.4281	        11.2185	         1.2022	        10.1279	         2.7191	         6.0096	         6.5503
        20.8457	         7.1271	        12.7804	         1.1933	        10.1466	         2.7948	         5.8137	         6.6604
        21.6795	         6.8387	        12.8719	         1.1842	        10.5965	         2.8446	         5.6230	         7.2676
        22.5133	         6.5626	        12.8553	         1.1749	        10.9702	         2.8770	         5.4377	         6.6265
        23.3471	         6.2988	        13.7527	         1.1655	        11.0630	         2.8816	         5.2578	         7.6909
        24.1810	         6.0469	        12.6052	         1.1558	        10.9171	         2.9147	         5.0836	         7.6578
        25.0148	         5.8065	        12.7465	         1.1459	        10.7665	         2.9327	         4.9150	         8.4308
        25.8486	         5.5772	        13.1502	         1.1359	        11.2878	         2.9836	         4.7520	         8.4930
        26.6825	         5.3587	        12.6890	         1.1258	        11.3453	         3.0085	         4.5947	         8.1239
        27.5163	         5.1506	        12.9944	         1.1155	        11.5832	         3.1108	         4.4429	         8.5673
        28.3501	         4.9522	        13.3900	         1.1051	        11.6694	         3.0960	         4.2966	         9.1254
        29.1839	         4.7634	        13.1105	         1.0946	        11.9697	         3.1455	         4.1557	         9.2397
        30.0178	         4.5835	        13.2218	         1.0840	        11.6725	         3.1821	         4.0200	         8.9558
        30.8516	         4.4122	        13.0995	         1.0733	        12.0525	         3.2641	         3.8895	        10.1023
        31.6854	         4.2490	        13.8803	         1.0625	        12.0184	         3.3069	         3.7639	         9.7533
        32.5192	         4.0936	        13.2924	         1.0517	        12.4264	         3.2802	         3.6431	        10.4565
        33.3531	         3.9455	        13.4055	         1.0408	        12.8572	         3.3367	         3.5270	         9.9196
        34.1869	         3.8044	        13.4347	         1.0298	        12.5197	         3.3364	         3.4154	        10.4675
        35.0207	         3.6700	        13.1746	         1.0189	        12.3966	         3.3792	         3.3081	        10.8524
        35.8545	         3.5417	        12.2825	         1.0079	        12.8113	         3.5182	         3.2051	        10.3977
        36.6884	         3.4195	        12.9939	         0.9969	        12.6757	         3.4790	         3.1060	        11.0345
        37.5222	         3.3028	        13.1953	         0.9858	        13.4349	         3.4263	         3.0108	        11.4314
        38.3560	         3.1915	        12.7906	         0.9748	        12.7689	         3.5214	         2.9193	        11.5726
        39.1898	         3.0853	        12.7624	         0.9638	        12.7782	         3.6087	         2.8314	        10.7052
        40.0237	         2.9838	        12.8158	         0.9528	        12.9833	         3.6057	         2.7469	        11.8283
        40.8575	         2.8868	        12.3502	         0.9419	        13.2292	         3.7332	         2.6656	        10.8436
        41.6913	         2.7941	        10.8879	         0.9309	        12.9880	         3.7624	         2.5875	        11.0387
        42.5252	         2.7055	        11.9471	         0.9200	        12.9345	         3.7058	         2.5124	        11.2457
        43.3590	         2.6208	        11.9133	         0.9092	        13.4394	         3.7471	         2.4402	        12.2405
        44.1928	         2.5397	        11.7355	         0.8984	        13.3570	         3.8851	         2.3707	        11.2974
        45.0266	         2.4621	        11.7578	         0.8876	        13.4833	         3.9519	         2.3039	        11.6636
        45.8605	         2.3877	        11.5147	         0.8769	        13.2252	         3.9677	         2.2396	        12.2795
        46.6943	         2.3164	        11.8015	         0.8663	        13.1022	         3.9568	         2.1776	        11.3333
        47.5281	         2.2482	        11.6687	         0.8558	        12.9812	         4.0619	         2.1180	        11.7315
        48.3619	         2.1827	        11.2680	         0.8453	        13.2789	         4.0959	         2.0606	        11.8147
        49.1958	         2.1199	        11.2294	         0.8349	        13.1365	         4.1444	         2.0053	        11.8933
        50.0296	         2.0596	        11.0874	         0.8246	        13.0067	         4.2139	         1.9520	        11.4824
        50.8634	         2.0017	        10.4279	         0.8143	        13.1671	         4.1978	         1.9007	        11.9314
        51.6972	         1.9461	        10.5376	         0.8042	        12.9095	         4.2469	         1.8512	        11.4368
        52.5311	         1.8927	        10.8437	         0.7941	        13.0093	         4.3910	         1.8035	        11.9437
        53.3649	         1.8413	        10.9548	         0.7842	        13.2988	         4.3666	         1.7574	        11.4454
        54.1987	         1.7919	        10.2603	         0.7743	        12.6569	         4.3430	         1.7130	        12.2635
        55.0326	         1.7444	         9.9505	         0.7645	        12.5038	         4.3768	         1.6701	        11.9266
        55.8664	         1.6987	        10.3005	         0.7549	        12.9304	         4.4892	         1.6287	        11.2743
        56.7002	         1.6546	         9.4159	         0.7453	        12.5920	         4.5730	         1.5888	        11.9293
        57.5340	         1.6122	         9.8068	         0.7358	        13.0512	         4.6102	         1.5502	        11.4847
        58.3679	         1.5713	         9.5535	         0.7265	        12.3748	         4.6215	         1.5129	        11.2543
        59.2017	         1.5320	         9.7147	         0.7172	        12.4516	         4.7008	         1.4769	        11.0555
        60.0355	         1.4940	         9.0411	         0.7081	        12.3326	         4.7621	         1.4420	        10.8082
        60.8693	         1.4573	         9.6214	         0.6990	        12.1890	         4.7389	         1.4084	        11.0698
        61.7032	         1.4220	         8.7033	         0.6901	        11.9968	         4.7978	         1.3758	        10.7045
        62.5370	         1.3879	         8.7975	         0.6813	        11.6205	         4.8419	         1.3443	        10.9879
        63.3708	         1.3549	         9.2924	         0.6725	        11.7686	         4.9887	         1.3138	        10.8857
        64.2046	         1.3231	         8.4451	         0.6639	        12.0885	         4.8922	         1.2842	        10.7547
        65.0385	         1.2923	         8.8553	         0.6554	        11.6979	         4.9916	         1.2556	        10.7524
        65.8723	         1.2626	         7.9506	         0.6471	        11.8196	         5.1418	         1.2280	        10.6679
        66.7061	         1.2339	         8.6483	         0.6388	        11.4321	         5.1472	         1.2011	        10.5008
        67.5400	         1.2061	         8.3772	         0.6306	        11.4181	         5.1109	         1.1751	        10.1473
        68.3738	         1.1792	         7.9557	         0.6225	        11.0761	         5.1543	         1.1499	        10.1718
        69.2076	         1.1531	         8.0435	         0.6146	        11.3304	         5.2190	         1.1255	        10.6551
        70.0414	         1.1279	         7.6178	         0.6067	        11.1588	         5.2855	         1.1018	        10.7953
        70.8753	         1.1035	         7.2881	         0.5990	        10.7650	         5.5580	         1.0789	         9.9117
        71.7091	         1.0799	         7.9379	         0.5914	        10.7232	         5.4536	         1.0566	         9.7545
        72.5429	         1.0570	         7.7386	         0.5839	        10.8445	         5.5532	         1.0349	         9.8865
        73.3767	         1.0347	         7.6024	         0.5764	        10.8912	         5.6465	         1.0139	        10.0326
        74.2106	         1.0132	         7.0534	         0.5691	        10.4288	         5.6903	         0.9935	         9.2064
        75.0444	         0.9923	         7.0876	         0.5619	        10.3093	         5.6227	         0.9737	         9.3461
        75.8782	         0.9721	         6.8715	         0.5548	        10.1772	         5.7773	         0.9545	         9.3961
        76.7120	         0.9524	         6.4950	         0.5478	         9.7709	         5.7632	         0.9358	         9.5023
        77.5459	         0.9333	         6.6873	         0.5409	        10.1493	         5.9466	         0.9176	         8.9033
        78.3797	         0.9148	         6.8050	         0.5341	         9.6048	         5.9782	         0.8999	         8.5655
        79.2135	         0.8968	         6.8814	         0.5274	         9.6842	         6.0818	         0.8828	         8.3757
        80.0474	         0.8793	         6.5931	         0.5208	         9.5060	         6.1083	         0.8661	         8.5846
        80.8812	         0.8623	         6.7130	         0.5143	         9.6772	         6.2194	         0.8498	         8.9278
        81.7150	         0.8458	         6.4809	         0.5078	         9.1889	         6.1972	         0.8340	         8.5788
        82.5488	         0.8298	         6.0676	         0.5015	         9.4059	         6.2809	         0.8186	         8.2430
        83.3827	         0.8142	         6.0355	         0.4953	         9.0831	         6.3998	         0.8037	         8.4992
        84.2165	         0.7990	         6.1654	         0.4892	         9.0439	         6.3413	         0.7891	         8.2058
        85.0503	         0.7843	         6.0249	         0.4831	         8.6685	         6.5751	         0.7749	         8.5179
        85.8841	         0.7699	         5.8654	         0.4772	         8.8180	         6.6071	         0.7611	         7.7293
        86.7180	         0.7559	         5.9712	         0.4713	         8.6842	         6.7111	         0.7476	         8.0867
        87.5518	         0.7423	         5.7698	         0.4655	         8.2709	         6.6610	         0.7345	         8.1859
        88.3856	         0.7290	         5.6055	         0.4598	         8.3985	         6.7053	         0.7217	         7.0519
        89.2194	         0.7161	         5.5422	         0.4542	         8.2879	         6.7955	         0.7092	         7.7244
        90.0533	         0.7036	         5.2942	         0.4487	         8.2824	         6.7920	         0.6970	         7.3775
        90.8871	         0.6913	         5.1488	         0.4433	         8.1039	         6.8676	         0.6852	         7.1679
        91.7209	         0.6794	         5.3144	         0.4379	         7.6836	         6.8457	         0.6736	         7.0548
        92.5548	         0.6678	         4.9397	         0.4326	         7.8767	         6.9553	         0.6623	         6.8935
        93.3886	         0.6564	         4.8572	         0.4274	         7.4841	         7.0215	         0.6513	         7.1156
        94.2224	         0.6454	         4.7787	         0.4223	         7.3639	         7.0841	         0.6406	         6.6024
        95.0562	         0.6346	         4.5584	         0.4173	         7.3819	         7.2802	         0.6301	         6.3244
        95.8901	         0.6240	         4.4015	         0.4123	         7.2933	         7.3865	         0.6199	         6.6814
        96.7239	         0.6138	         4.4383	         0.4074	         7.1922	         7.4679	         0.6099	         6.1606
        97.5577	         0.6038	         4.4920	         0.4026	         6.8808	         7.3819	         0.6001	         6.2504
        98.3915	         0.5940	         4.5212	         0.3979	         7.0831	         7.3100	         0.5906	         6.1981
        99.2254	         0.5844	         4.3617	         0.3932	         6.6762	         7.5355	         0.5813	         5.8402
       100.0592	         0.5751	         4.1347	         0.3886	         6.4269	         7.6199	         0.5722	         5.8754
       100.8930	         0.5660	         4.2397	         0.3841	         6.6676	         7.6341	         0.5633	         5.8454
       101.7268	         0.5571	         4.0067	         0.3796	         6.1238	         7.7391	         0.5546	         5.6507
       102.5607	         0.5484	         4.0366	         0.3752	         6.1748	         7.8265	         0.5462	         6.0711
       103.3945	         0.5399	         3.9487	         0.3709	         6.4748	         7.8939	         0.5379	         5.2629
       104.2283	         0.5316	         3.7491	         0.3666	         5.9116	         7.8492	         0.5297	         5.4064
       105.0621	         0.5235	         3.8122	         0.3624	         6.1382	         7.7842	         0.5218	         5.3930
       105.8960	         0.5156	         3.6854	         0.3583	         6.1816	         8.0495	         0.5140	         5.3777
       106.7298	         0.5079	         3.6453	         0.3542	         5.8652	         7.8886	         0.5065	         5.1285
       107.5636	         0.5003	         3.5643	         0.3502	         5.6645	         8.1068	         0.4990	         5.1580
       108.3975	         0.4929	         3.7233	         0.3462	         5.7067	         8.0736	         0.4918	         4.9555
       109.2313	         0.4856	         3.3215	         0.3423	         5.6465	         8.2649	         0.4846	         4.7746
       110.0651	         0.4785	         3.2793	         0.3385	         5.4584	         8.2504	         0.4777	         4.8177
       110.8989	         0.4716	         3.2435	         0.3347	         5.5053	         8.5174	         0.4709	         4.6586
       111.7328	         0.4648	         3.1217	         0.3310	         5.1754	         8.5097	         0.4642	         4.7614
       112.5666	         0.4582	         3.3198	         0.3273	         5.1971	         8.6218	         0.4576	         4.8967
       113.4004	         0.4516	         3.1965	         0.3237	         5.2469	         8.7053	         0.4512	         4.6885
       114.2342	         0.4453	         2.9334	         0.3201	         5.0507	         8.7147	         0.4450	         4.4823
       115.0681	         0.4390	         2.9248	         0.3166	         5.0020	         8.7577	         0.4388	         4.2313
       115.9019	         0.4329	         2.8080	         0.3132	         4.8407	         8.6853	         0.4328	         4.3917
       116.7357	         0.4269	         2.8774	         0.3098	         4.7474	         8.8243	         0.4269	         4.4324
       117.5695	         0.4211	         2.6650	         0.3064	         4.7745	         8.6288	         0.4211	         4.0588
       118.4034	         0.4153	         2.6901	         0.3031	         4.5048	         8.7827	         0.4155	         4.1117
       119.2372	         0.4097	         2.7949	         0.2998	         4.5322	         9.0297	         0.4099	         4.1999
       120.0710	         0.4042	         2.4600	         0.2966	         4.4270	         8.7807	         0.4045	         3.8870
       120.9049	         0.3988	         2.4266	         0.2934	         4.2803	         8.8165	         0.3991	         3.8462
       121.7387	         0.3935	         2.5038	         0.2903	         4.3493	         8.8903	         0.3939	         3.8001
       122.5725	         0.3883	         2.3748	         0.2872	         4.1362	         8.8778	         0.3888	         3.5526
       123.4063	         0.3832	         2.3419	         0.2842	         4.1719	         8.9556	         0.3837	         3.8176
       124.2402	         0.3782	         2.3113	         0.2812	         4.1147	         9.1103	         0.3788	         3.3854
       125.0740	         0.3733	         2.1362	         0.2783	         4.0017	         9.0930	         0.3740	         3.4704
       125.9078	         0.3685	         2.1335	         0.2754	         3.9894	         9.1442	         0.3692	         3.3802
       126.7416	         0.3638	         2.0894	         0.2725	         3.8692	         9.0227	         0.3645	         3.6162
       127.5755	         0.3592	         2.1270	         0.2697	         3.6724	         9.0687	         0.3600	         3.3936
       128.4093	         0.3546	         2.0320	         0.2669	         3.8411	         9.1050	         0.3555	         3.2601
