time/(ps)	Tra[water1]	Rot[water1]	Vib[water1]	Ang[water1]	Tot[water1]
         0.0000	    814189.6875	    813952.8125	       510.6454	    813952.8125	   1628653.2500
         0.0040	    804920.6875	    723381.0000	       442.8852	    729776.7500	   1528756.0000
         0.0080	    778201.2500	    483380.4375	       289.7781	    502666.5000	   1261868.1250
         0.0120	    736535.6875	    171612.2031	       141.2146	    198437.3750	    908179.6250
         0.0160	    683374.3750	   -124699.2812	        46.1627	   -101111.0078	    558431.7500
         0.0200	    622423.0625	   -339641.8125	        -0.8103	   -325921.4688	    282329.9688
         0.0240	    557119.7500	   -442187.5312	       -20.0286	   -437603.1250	    114396.7109
         0.0280	    490345.7500	   -435667.1875	       -18.7736	   -435631.3125	     54179.4141
         0.0320	    424337.9375	   -349370.0000	         3.5695	   -350001.8438	     74579.1328
         0.0360	    360746.5312	   -225579.5312	        40.1023	   -225324.1250	    134908.2969
         0.0400	    300774.6250	   -104644.9688	        75.5311	   -103490.0781	    195981.4219
         0.0440	    245331.6562	    -12808.5332	        98.3042	    -11307.3623	    232446.4062
         0.0480	    195139.6094	     42304.3516	       107.6461	     43453.2266	    237398.3906
         0.0520	    150771.5156	     67675.4219	       109.1053	     67964.9609	    218404.7969
         0.0560	    112630.2500	     76243.9297	       107.8839	     75708.0859	    188826.5000
         0.0600	     80908.7734	     78801.3438	       106.9302	     77983.7109	    159661.9219
         0.0640	     55566.3750	     79724.7578	       107.4102	     79245.0938	    135250.4375
         0.0680	     36338.5078	     77262.9062	       108.4511	     77423.3125	    113570.0391
         0.0720	     22778.1211	     67140.2734	       107.4184	     67852.2500	     89889.5000
         0.0760	     14311.8125	     47029.1680	       102.1665	     47950.3047	     61302.4570
         0.0800	     10291.4482	     19268.3867	        93.1872	     19980.2969	     29500.2188
         0.0840	     10027.9707	     -9563.8760	        83.2765	     -9362.5664	       378.1950
         0.0880	     12805.6699	    -31646.6973	        75.5234	    -31970.7500	    -18949.3789
         0.0920	     17886.1660	    -41555.4258	        71.8193	    -42114.1016	    -23788.9277
         0.0960	     24515.2578	    -38591.3281	        72.4813	    -38964.7695	    -14193.9180
         0.1000	     31942.4043	    -26785.3027	        76.3031	    -26662.7520	      5050.4980
         0.1040	     39453.9688	    -12749.5332	        80.9574	    -12065.2324	     26611.7598
         0.1080	     46413.4141	     -2526.4202	        84.0884	     -1452.1682	     43804.6641
         0.1120	     52296.1719	       988.4692	        84.5835	      2144.6187	     53205.8086
         0.1160	     56709.3633	     -1160.4877	        82.9781	      -220.4476	     55467.2539
         0.1200	     59392.7969	     -5182.5933	        80.7829	     -4605.3188	     54123.1797
         0.1240	     60205.0781	     -6896.0483	        79.4972	     -6615.1313	     53218.6602
         0.1280	     59103.7305	     -3959.8022	        79.9469	     -3757.7959	     55055.3203
         0.1320	     56127.9297	      3070.0457	        81.9939	      3420.1675	     59116.0000
         0.1360	     51388.0938	     11237.0811	        84.5978	     11846.2344	     62551.6406
         0.1400	     45061.5039	     16846.2520	        86.3348	     17662.0859	     61840.5625
         0.1440	     37388.8945	     17370.9297	        86.2113	     18211.8906	     54694.0977
         0.1480	     28665.6289	     12631.3174	        84.2080	     13275.4990	     41227.3047
         0.1520	     19225.3262	      4721.2144	        81.1836	      5013.7700	     23869.3555
         0.1560	      9416.1484	     -3153.6309	        78.3276	     -3222.8928	      6177.2744
         0.1600	      -425.3058	     -8236.7930	        76.5741	     -8531.5645	     -8752.8721
         0.1640	     -9996.2539	     -9388.9600	        76.2568	     -9703.8447	    -19477.3555
         0.1680	    -19042.3086	     -7358.5166	        77.0513	     -7526.9272	    -26490.5176
         0.1720	    -27362.4316	     -4134.2534	        78.1989	     -4103.3486	    -31582.0371
         0.1760	    -34807.3086	     -1796.6788	        78.9238	     -1635.1211	    -36685.4648
         0.1800	    -41274.3633	     -1482.8113	        78.8302	     -1327.8224	    -42836.8516
         0.1840	    -46703.6562	     -2961.3660	        78.0492	     -2937.2302	    -49745.0742
         0.1880	    -51076.2461	     -4956.1152	        77.0785	     -5106.5293	    -56113.7148
         0.1920	    -54414.1211	     -5964.8208	        76.4725	     -6233.9277	    -60460.9453
         0.1960	    -56779.7422	     -5104.7617	        76.5592	     -5373.9131	    -61965.6562
         0.2000	    -58272.6562	     -2555.4053	        77.2833	     -2709.8982	    -60907.1641
         0.2040	    -59021.9531	       589.5633	        78.2280	       602.9977	    -58509.3164
         0.2080	    -59175.4922	      2937.1057	        78.8429	      3088.9021	    -56314.1055
         0.2120	    -58887.6523	      3524.6465	        78.7599	      3721.2773	    -55439.0234
         0.2160	    -58308.4375	      2278.3904	        77.9991	      2409.2546	    -56107.6523
         0.2200	    -57576.0039	       -15.3384	        76.9263	       -23.5584	    -57670.9453
         0.2240	    -56812.5625	     -2168.7021	        76.0112	     -2315.3867	    -59062.1523
         0.2280	    -56122.8047	     -3207.6421	        75.5843	     -3419.8503	    -59411.0938
         0.2320	    -55593.2305	     -2821.3135	        75.7183	     -2993.9626	    -58493.3945
         0.2360	    -55290.8594	     -1441.0490	        76.2209	     -1491.3842	    -56808.1836
         0.2400	    -55261.1445	        54.0726	        76.7378	       149.0499	    -55281.1562
         0.2440	    -55525.9961	       826.2729	        76.9381	      1026.2546	    -54773.0000
         0.2480	    -56082.7500	       501.3095	        76.6890	       729.9608	    -55655.6836
         0.2520	    -56905.7109	      -684.0750	        76.1061	      -496.8738	    -57666.4297
         0.2560	    -57950.1836	     -2058.9294	        75.4528	     -1941.0054	    -60088.6680
         0.2600	    -59158.1055	     -2897.0059	        74.9896	     -2823.5435	    -62136.9766
         0.2640	    -60464.1445	     -2788.5046	        74.8669	     -2703.0039	    -63335.4062
         0.2680	    -61800.7930	     -1822.5161	        75.0767	     -1674.6542	    -63705.4805
         0.2720	    -63101.9102	      -507.8707	        75.4548	      -283.4564	    -63690.4492
         0.2760	    -64305.0664	       508.8556	        75.7520	       781.5154	    -63875.1992
         0.2800	    -65352.7734	       774.7571	        75.7717	      1039.8494	    -64655.5859
         0.2840	    -66193.8359	       239.3564	        75.4806	       439.0354	    -66030.9609
         0.2880	    -66785.2266	      -758.9601	        75.0101	      -658.1911	    -67619.8281
         0.2920	    -67094.5312	     -1702.6547	        74.5501	     -1691.9329	    -68872.1328
         0.2960	    -67102.2031	     -2171.4109	        74.2376	     -2201.4587	    -69348.0000
         0.3000	    -66803.3594	     -2036.4087	        74.1089	     -2043.8677	    -68913.7969
         0.3040	    -66207.6719	     -1487.1495	        74.1116	     -1431.7963	    -67768.8516
         0.3080	    -65337.8594	      -899.1964	        74.1407	      -787.4156	    -66311.5859
         0.3120	    -64226.6992	      -622.3659	        74.0938	      -502.6802	    -64924.5898
         0.3160	    -62913.5469	      -798.9905	        73.9383	      -735.3152	    -63789.3828
         0.3200	    -61441.1445	     -1301.9866	        73.7310	     -1340.8347	    -62821.3125
         0.3240	    -59853.3828	     -1816.5411	        73.5642	     -1963.7394	    -61749.0078
         0.3280	    -58193.4609	     -2012.2209	        73.4986	     -2229.5154	    -60284.8398
         0.3320	    -56502.8516	     -1710.9208	        73.5518	     -1933.7598	    -58292.0273
         0.3360	    -54819.8555	      -969.7897	        73.7054	     -1135.2448	    -55866.2969
         0.3400	    -53178.0234	       -47.1893	        73.8947	      -115.5374	    -53300.1484
         0.3440	    -51604.4609	       723.8474	        74.0140	       762.9894	    -50954.2695
         0.3480	    -50118.5742	      1090.0226	        73.9727	      1223.0671	    -49101.6797
         0.3520	    -48731.3594	       982.3040	        73.7709	      1180.7274	    -47822.3164
         0.3560	    -47445.7695	       520.6878	        73.5033	       750.8437	    -46998.8047
         0.3600	    -46257.3750	       -72.5972	        73.2737	       160.7652	    -46404.1055
         0.3640	    -45155.7578	      -592.1277	        73.1201	      -372.8112	    -45822.1719
         0.3680	    -44126.0781	      -933.7194	        73.0154	      -737.9017	    -45134.0312
         0.3720	    -43150.7695	     -1111.5710	        72.9114	      -950.4982	    -44336.5625
         0.3760	    -42210.7773	     -1214.9479	        72.7669	     -1106.5475	    -43500.2461
         0.3800	    -41287.0820	     -1335.1921	        72.5571	     -1297.8235	    -42697.5039
         0.3840	    -40361.4609	     -1500.0425	        72.2986	     -1541.0574	    -41937.7539
         0.3880	    -39417.7500	     -1648.6642	        72.0768	     -1757.9106	    -41143.7383
         0.3920	    -38442.3945	     -1662.8760	        72.0056	     -1813.6874	    -40183.3906
         0.3960	    -37425.2969	     -1437.3912	        72.1354	     -1591.7062	    -38940.9727
         0.4000	    -36360.2461	      -947.1795	        72.4082	     -1063.6019	    -37384.9766
         0.4040	    -35245.4297	      -273.4197	        72.7084	      -320.2889	    -35594.7461
         0.4080	    -34083.1953	       421.1730	        72.9381	       450.8783	    -33735.6680
         0.4120	    -32879.8398	       951.0096	        73.0487	      1032.2708	    -32000.2871
         0.4160	    -31644.6621	      1172.0072	        73.0268	      1256.5673	    -30542.7168
         0.4200	    -30388.9043	      1028.1322	        72.8654	      1067.5054	    -29430.5859
         0.4240	    -29124.5605	       568.5275	        72.5679	       536.1626	    -28626.5234
         0.4280	    -27863.3848	       -68.3972	        72.1826	      -170.8469	    -28003.3145
         0.4320	    -26616.2383	      -702.3827	        71.8071	      -853.8119	    -27391.0273
         0.4360	    -25392.8477	     -1174.9009	        71.5283	     -1344.9049	    -26640.4727
         0.4400	    -24201.6113	     -1399.2917	        71.3609	     -1551.9510	    -25673.1211
         0.4440	    -23049.5957	     -1373.6931	        71.2586	     -1470.3788	    -24494.1387
         0.4480	    -21942.6348	     -1158.6042	        71.1753	     -1166.5555	    -23170.1875
         0.4520	    -20885.4844	      -840.8957	        71.1085	      -744.1570	    -21793.5430
         0.4560	    -19881.8926	      -503.4471	        71.0866	      -307.2710	    -20451.5195
         0.4600	    -18934.5352	      -206.1714	        71.1288	        67.9421	    -19207.0449
         0.4640	    -18044.9160	        22.4854	        71.2204	       345.3799	    -18089.8750
         0.4680	    -17213.3379	       183.5974	        71.3256	       523.4730	    -17098.6758
         0.4720	    -16438.9023	       294.9850	        71.4132	       617.5845	    -16214.1953
         0.4760	    -15719.5498	       372.6221	        71.4595	       640.8469	    -15418.1816
         0.4800	    -15052.0869	       416.7126	        71.4418	       593.6982	    -14707.3135
         0.4840	    -14432.1533	       410.3285	        71.3489	       466.6049	    -14094.4414
         0.4880	    -13854.2832	       330.3626	        71.1853	       252.8055	    -13597.4990
         0.4920	    -13312.1289	       164.1662	        70.9661	       -37.4757	    -13222.8818
         0.4960	    -12798.7871	       -77.3230	        70.7146	      -370.0895	    -12952.4854
         0.5001	    -12307.2754	      -357.2276	        70.4684	      -691.8475	    -12741.9053
         0.5041	    -11831.0176	      -622.4739	        70.2781	      -945.4497	    -12530.9336
         0.5081	    -11364.3369	      -820.0664	        70.1761	     -1087.0413	    -12260.6045
         0.5121	    -10902.9824	      -911.2881	        70.1541	     -1097.7932	    -11888.0967
         0.5161	    -10444.5566	      -879.8010	        70.1797	      -984.9990	    -11395.2520
         0.5201	     -9988.6904	      -734.3116	        70.2320	      -774.6485	    -10791.2129
         0.5241	     -9536.9170	      -505.8550	        70.3017	      -501.1649	    -10109.2100
         0.5281	     -9092.3291	      -237.7883	        70.3695	      -199.4658	     -9395.9551
         0.5321	     -8659.1240	        28.7595	        70.4037	        98.7177	     -8696.6660
         0.5361	     -8242.1787	       265.0999	        70.3862	       365.4818	     -8044.5752
         0.5401	     -7846.6069	       454.2010	        70.3274	       576.4142	     -7461.3564
         0.5441	     -7477.3579	       582.0161	        70.2497	       710.5825	     -6965.5684
         0.5481	     -7138.7754	       631.9580	        70.1576	       752.0853	     -6578.0269
         0.5521	     -6834.1797	       589.5372	        70.0290	       693.7623	     -6316.8247
         0.5561	     -6565.5474	       453.5157	        69.8452	       542.2462	     -6185.5566
         0.5601	     -6333.4624	       243.7338	        69.6285	       321.6904	     -6164.9717
         0.5641	     -6137.1328	        -0.2333	        69.4322	        72.7567	     -6214.1846
         0.5681	     -5974.5806	      -228.2985	        69.2939	      -155.4992	     -6280.3677
         0.5721	     -5842.8809	      -392.2000	        69.2255	      -319.2757	     -6311.8262
         0.5761	     -5738.5508	      -458.7149	        69.2329	      -394.0215	     -6271.9399
         0.5801	     -5658.0151	      -422.8380	        69.3217	      -382.7849	     -6152.8008
         0.5841	     -5598.0039	      -315.0586	        69.4688	      -314.7232	     -5982.5552
         0.5881	     -5555.6514	      -193.8903	        69.6031	      -233.6774	     -5817.5723
         0.5921	     -5528.3306	      -122.3294	        69.6383	      -181.1678	     -5718.4106
         0.5961	     -5513.1934	      -139.3862	        69.5361	      -180.3463	     -5720.9258
         0.6001	     -5506.7402	      -242.3668	        69.3288	      -227.0810	     -5818.4048
         0.6041	     -5504.5034	      -387.1449	        69.0927	      -291.7348	     -5961.7461
         0.6081	     -5501.0918	      -505.3915	        68.9043	      -330.8562	     -6076.8550
         0.6121	     -5490.5010	      -533.0945	        68.8012	      -304.0149	     -6093.5693
         0.6161	     -5466.7349	      -438.4605	        68.7702	      -189.6432	     -5974.2158
         0.6201	     -5424.5576	      -234.4516	        68.7698	         5.3055	     -5726.8896
         0.6241	     -5360.2192	        28.8039	        68.7618	       244.5087	     -5398.4082
         0.6281	     -5271.9033	       284.2375	        68.7287	       470.5827	     -5054.2861
         0.6321	     -5159.8301	       468.1327	        68.6756	       620.3043	     -4758.4404
         0.6361	     -5025.9131	       533.8864	        68.6227	       642.8876	     -4559.1763
         0.6401	     -4873.1646	       461.4223	        68.5784	       516.6282	     -4479.2979
         0.6441	     -4705.1274	       265.3505	        68.5271	       258.9929	     -4507.5161
         0.6481	     -4525.5083	        -2.1245	        68.4544	       -74.0866	     -4595.2983
         0.6521	     -4338.0396	      -262.6238	        68.3816	      -401.0278	     -4668.1572
         0.6561	     -4146.5679	      -439.1884	        68.3454	      -636.8133	     -4653.1509
         0.6601	     -3955.3303	      -485.4170	        68.3418	      -718.5422	     -4508.0879
         0.6641	     -3769.3059	      -397.4435	        68.3177	      -626.2662	     -4233.8496
         0.6681	     -3594.2839	      -206.7206	        68.2387	      -391.3243	     -3867.4551
         0.6721	     -3436.4031	        33.1315	        68.1337	       -88.0390	     -3468.7021
         0.6761	     -3301.2578	       256.8708	        68.0603	       189.8568	     -3108.7842
         0.6801	     -3193.0862	       399.8673	        68.0390	       360.8987	     -2857.0452
         0.6841	     -3114.1411	       417.9946	        68.0311	       384.8480	     -2760.1392
         0.6881	     -3064.5591	       309.0659	        67.9742	       277.7122	     -2820.3242
         0.6921	     -3042.4878	       120.3826	        67.8366	       105.7404	     -2988.1143
         0.6961	     -3044.6050	       -67.8565	        67.6451	       -41.2662	     -3179.5681
         0.7001	     -3066.6804	      -178.3756	        67.4676	       -88.1432	     -3312.8672
         0.7041	     -3104.1665	      -174.4935	        67.3542	        -8.7527	     -3346.6594
         0.7081	     -3152.3755	       -78.6699	        67.3006	       158.9685	     -3298.7505
         0.7121	     -3206.6494	        40.0283	        67.2713	       325.8905	     -3233.6958
         0.7161	     -3262.0376	       100.7376	        67.2479	       388.7598	     -3227.6252
         0.7201	     -3313.4614	        47.1543	        67.2335	       276.5937	     -3332.0562
         0.7241	     -3355.5928	      -129.6873	        67.2269	       -13.4372	     -3550.9358
         0.7281	     -3383.3010	      -387.1125	        67.2100	      -407.2167	     -3836.6238
         0.7321	     -3391.9072	      -642.4683	        67.1661	      -776.7784	     -4101.6431
         0.7361	     -3377.9011	      -798.8207	        67.1043	      -986.4631	     -4245.0918
         0.7401	     -3339.1704	      -780.4079	        67.0529	      -944.1576	     -4188.5581
         0.7441	     -3275.3364	      -566.1389	        67.0306	      -637.6505	     -3910.2463
         0.7481	     -3187.3230	      -203.4456	        67.0264	      -141.6985	     -3458.5718
         0.7521	     -3077.1360	       207.0503	        67.0164	       406.8188	     -2936.5640
         0.7561	     -2947.3228	       548.9295	        66.9790	       855.4064	     -2463.6606
         0.7601	     -2800.7483	       732.1088	        66.8957	      1085.7703	     -2133.1331
         0.7641	     -2640.4343	       721.1237	        66.7517	      1048.3456	     -1983.5845
         0.7681	     -2469.8188	       540.0803	        66.5486	       770.2399	     -1994.3352
         0.7721	     -2293.0903	       255.6499	        66.3165	       336.6288	     -2102.8325
         0.7761	     -2115.5825	       -52.6518	        66.1143	      -143.7908	     -2234.7441
         0.7801	     -1943.8344	      -321.8915	        66.0037	      -573.3524	     -2333.3677
         0.7841	     -1785.3199	      -521.6560	        66.0066	      -886.6689	     -2375.3694
         0.7881	     -1647.7709	      -649.3130	        66.0860	     -1054.1267	     -2365.6040
         0.7921	     -1538.3101	      -709.6160	        66.1745	     -1072.6821	     -2316.0063
         0.7961	     -1462.5586	      -695.4802	        66.2303	      -953.8369	     -2225.4036
         0.8001	     -1423.8927	      -586.8134	        66.2630	      -717.0294	     -2077.3713
         0.8041	     -1422.9457	      -370.2182	        66.3126	      -390.7425	     -1859.2329
         0.8081	     -1457.4885	       -64.8727	        66.4011	       -17.8283	     -1587.8232
         0.8121	     -1522.6891	       267.7102	        66.4925	       342.3847	     -1319.7009
         0.8161	     -1611.6536	       541.8408	        66.5132	       622.2888	     -1133.6429
         0.8201	     -1716.1729	       683.3956	        66.4186	       765.2922	     -1095.6274
         0.8241	     -1827.5646	       660.6833	        66.2291	       748.3187	     -1228.7997
